num	tau	y	dy
106	10	-3.68625	0.230609
107	20	-0.63	0.224249
108	30	1.38	0.223894
109	40	2.8275	0.215456
110	50	3.895	0.210162
111	50	3.94375	0.223883
112	70	5.31375	0.227807
113	80	5.8225	0.218808
114	90	6.26	0.22026
115	100	6.50875	0.219909
116	110	6.74875	0.231299
117	120	6.93625	0.229916
118	130	7.13	0.224605
120	140	7.18875	0.228157
121	150	7.3125	0.230945
122	160	7.37125	0.231662
125	170	8.56563	0.211298
126	180	8.55625	0.212303
